# Pulseq sequence file
# Created by MATLAB mr toolbox

[VERSION]
major 1
minor 3
revision 1

[DEFINITIONS]
FOV 0.24 0.24 0.005 
Name pulseq_spiral_REX 
Rot_Matrix 1 0 0 0 1 0 0 0 1 
Scan_ID 201071853 

# Format of blocks:
#  #  D RF  GX  GY  GZ ADC EXT
[BLOCKS]
    1  0  1   0   0   0  0  0
    2  0  0   1   1   1  0  0
    3  1  0   0   0   0  0  0
    4  0  2   0   0   0  0  0
    5  2  0   0   0   0  0  0
    6  0  3   0   0   2  0  0
    7  2  0   0   0   0  0  0
    8  0  4   0   0   0  0  0
    9  2  0   0   0   0  0  0
   10  0  5   0   0   3  0  0
   11  2  0   0   0   0  0  0
   12  0  6   0   0   0  0  0
   13  2  0   0   0   0  0  0
   14  0  3   0   0   2  0  0
   15  2  0   0   0   0  0  0
   16  0  0   4   4   4  0  0
   17  3  0   0   0   0  0  0
   18  0  7   0   0   5  0  0
   19  0  0   0   0   6  0  0
   20  1  0   0   0   0  0  0
   21  0  0   7   8   9  0  0
   22  1  0   0   0   0  0  0
   23  0  8   0   0   5  0  0
   24  0  0   0   0   6  0  0
   25  1  0   0   0   0  0  0
   26  0  0  10   7   9  0  0
   27  1  0   0   0   0  0  0
   28  0  9   0   0   5  0  0
   29  0  0   0   0   6  0  0
   30  1  0   0   0   0  0  0
   31  0  0  11  10   9  0  0
   32  1  0   0   0   0  0  0
   33  0 10   0   0   5  0  0
   34  0  0   0   0   6  0  0
   35  1  0   0   0   0  0  0
   36  0  0   8  11   9  0  0
   37  1  0   0   0   0  0  0
   38  0  0  12  12  12  0  0
   39  4  0   0   0   0  0  0
   40  0  1   0   0   0  0  0
   41  0  0   1   1   1  0  0
   42  1  0   0   0   0  0  0
   43  0  2   0   0   0  0  0
   44  2  0   0   0   0  0  0
   45  0  3   0   0   2  0  0
   46  2  0   0   0   0  0  0
   47  0  4   0   0   0  0  0
   48  2  0   0   0   0  0  0
   49  0  5   0   0   3  0  0
   50  2  0   0   0   0  0  0
   51  0  6   0   0   0  0  0
   52  2  0   0   0   0  0  0
   53  0  3   0   0   2  0  0
   54  2  0   0   0   0  0  0
   55  0  0   4   4   4  0  0
   56  3  0   0   0   0  0  0
   57  0  7   0   0   5  0  0
   58  0  0   0   0   6  0  0
   59  1  0   0   0   0  0  0
   60  0  0   7   8   9  0  0
   61  1  0   0   0   0  0  0
   62  0  8   0   0   5  0  0
   63  0  0   0   0   6  0  0
   64  1  0   0   0   0  0  0
   65  0  0  10   7   9  0  0
   66  1  0   0   0   0  0  0
   67  0  9   0   0   5  0  0
   68  0  0   0   0   6  0  0
   69  1  0   0   0   0  0  0
   70  0  0  11  10   9  0  0
   71  1  0   0   0   0  0  0
   72  0 10   0   0   5  0  0
   73  0  0   0   0   6  0  0
   74  1  0   0   0   0  0  0
   75  0  0   8  11   9  0  0
   76  1  0   0   0   0  0  0
   77  0  0  12  12  12  0  0
   78  4  0   0   0   0  0  0
   79  0  1   0   0   0  0  0
   80  0  0   1   1   1  0  0
   81  1  0   0   0   0  0  0
   82  0  2   0   0   0  0  0
   83  2  0   0   0   0  0  0
   84  0  3   0   0   2  0  0
   85  2  0   0   0   0  0  0
   86  0  4   0   0   0  0  0
   87  2  0   0   0   0  0  0
   88  0  5   0   0   3  0  0
   89  2  0   0   0   0  0  0
   90  0  6   0   0   0  0  0
   91  2  0   0   0   0  0  0
   92  0  3   0   0   2  0  0
   93  2  0   0   0   0  0  0
   94  0  0   4   4   4  0  0
   95  3  0   0   0   0  0  0
   96  0  7   0   0   5  0  0
   97  0  0   0   0   6  0  0
   98  1  0   0   0   0  0  0
   99  0  0   7   8   9  0  0
  100  1  0   0   0   0  0  0
  101  0  8   0   0   5  0  0
  102  0  0   0   0   6  0  0
  103  1  0   0   0   0  0  0
  104  0  0  10   7   9  0  0
  105  1  0   0   0   0  0  0
  106  0  9   0   0   5  0  0
  107  0  0   0   0   6  0  0
  108  1  0   0   0   0  0  0
  109  0  0  11  10   9  0  0
  110  1  0   0   0   0  0  0
  111  0 10   0   0   5  0  0
  112  0  0   0   0   6  0  0
  113  1  0   0   0   0  0  0
  114  0  0   8  11   9  0  0
  115  1  0   0   0   0  0  0
  116  0  0  12  12  12  0  0
  117  4  0   0   0   0  0  0
  118  0  1   0   0   0  0  0
  119  0  0   1   1   1  0  0
  120  1  0   0   0   0  0  0
  121  0  2   0   0   0  0  0
  122  2  0   0   0   0  0  0
  123  0  3   0   0   2  0  0
  124  2  0   0   0   0  0  0
  125  0  4   0   0   0  0  0
  126  2  0   0   0   0  0  0
  127  0  5   0   0   3  0  0
  128  2  0   0   0   0  0  0
  129  0  6   0   0   0  0  0
  130  2  0   0   0   0  0  0
  131  0  3   0   0   2  0  0
  132  2  0   0   0   0  0  0
  133  0  0   4   4   4  0  0
  134  3  0   0   0   0  0  0
  135  0  7   0   0   5  0  0
  136  0  0   0   0   6  0  0
  137  1  0   0   0   0  0  0
  138  0  0   7   8   9  1  0
  139  1  0   0   0   0  0  0
  140  0  8   0   0   5  0  0
  141  0  0   0   0   6  0  0
  142  1  0   0   0   0  0  0
  143  0  0  10   7   9  1  0
  144  1  0   0   0   0  0  0
  145  0  9   0   0   5  0  0
  146  0  0   0   0   6  0  0
  147  1  0   0   0   0  0  0
  148  0  0  11  10   9  1  0
  149  1  0   0   0   0  0  0
  150  0 10   0   0   5  0  0
  151  0  0   0   0   6  0  0
  152  1  0   0   0   0  0  0
  153  0  0   8  11   9  1  0
  154  1  0   0   0   0  0  0
  155  0  0  12  12  12  0  0
  156  4  0   0   0   0  0  0
  157  0  1   0   0   0  0  0
  158  0  0   1   1   1  0  0
  159  1  0   0   0   0  0  0
  160  0  2   0   0   0  0  0
  161  2  0   0   0   0  0  0
  162  0  3   0   0  13  0  0
  163  2  0   0   0   0  0  0
  164  0  4   0   0   0  0  0
  165  2  0   0   0   0  0  0
  166  0  5   0   0  14  0  0
  167  2  0   0   0   0  0  0
  168  0  6   0   0   0  0  0
  169  2  0   0   0   0  0  0
  170  0  3   0   0  13  0  0
  171  2  0   0   0   0  0  0
  172  0  0   4   4   4  0  0
  173  3  0   0   0   0  0  0
  174  0  7   0   0   5  0  0
  175  0  0   0   0   6  0  0
  176  1  0   0   0   0  0  0
  177  0  0   7   8   9  1  0
  178  1  0   0   0   0  0  0
  179  0  8   0   0   5  0  0
  180  0  0   0   0   6  0  0
  181  1  0   0   0   0  0  0
  182  0  0  10   7   9  1  0
  183  1  0   0   0   0  0  0
  184  0  9   0   0   5  0  0
  185  0  0   0   0   6  0  0
  186  1  0   0   0   0  0  0
  187  0  0  11  10   9  1  0
  188  1  0   0   0   0  0  0
  189  0 10   0   0   5  0  0
  190  0  0   0   0   6  0  0
  191  1  0   0   0   0  0  0
  192  0  0   8  11   9  1  0
  193  1  0   0   0   0  0  0
  194  0  0  12  12  12  0  0
  195  4  0   0   0   0  0  0
  196  0  1   0   0   0  0  0
  197  0  0   1   1   1  0  0
  198  1  0   0   0   0  0  0
  199  0  2   0   0   0  0  0
  200  2  0   0   0   0  0  0
  201  0  3   0   0  15  0  0
  202  2  0   0   0   0  0  0
  203  0  4   0   0   0  0  0
  204  2  0   0   0   0  0  0
  205  0  5   0   0  16  0  0
  206  2  0   0   0   0  0  0
  207  0  6   0   0   0  0  0
  208  2  0   0   0   0  0  0
  209  0  3   0   0  15  0  0
  210  2  0   0   0   0  0  0
  211  0  0   4   4   4  0  0
  212  3  0   0   0   0  0  0
  213  0  7   0   0   5  0  0
  214  0  0   0   0   6  0  0
  215  1  0   0   0   0  0  0
  216  0  0   7   8   9  1  0
  217  1  0   0   0   0  0  0
  218  0  8   0   0   5  0  0
  219  0  0   0   0   6  0  0
  220  1  0   0   0   0  0  0
  221  0  0  10   7   9  1  0
  222  1  0   0   0   0  0  0
  223  0  9   0   0   5  0  0
  224  0  0   0   0   6  0  0
  225  1  0   0   0   0  0  0
  226  0  0  11  10   9  1  0
  227  1  0   0   0   0  0  0
  228  0 10   0   0   5  0  0
  229  0  0   0   0   6  0  0
  230  1  0   0   0   0  0  0
  231  0  0   8  11   9  1  0
  232  1  0   0   0   0  0  0
  233  0  0  12  12  12  0  0
  234  4  0   0   0   0  0  0
  235  0  1   0   0   0  0  0
  236  0  0   1   1   1  0  0
  237  1  0   0   0   0  0  0
  238  0  2   0   0   0  0  0
  239  2  0   0   0   0  0  0
  240  0  3   0   0  17  0  0
  241  2  0   0   0   0  0  0
  242  0  4   0   0   0  0  0
  243  2  0   0   0   0  0  0
  244  0  5   0   0  18  0  0
  245  2  0   0   0   0  0  0
  246  0  6   0   0   0  0  0
  247  2  0   0   0   0  0  0
  248  0  3   0   0  17  0  0
  249  2  0   0   0   0  0  0
  250  0  0   4   4   4  0  0
  251  3  0   0   0   0  0  0
  252  0  7   0   0   5  0  0
  253  0  0   0   0   6  0  0
  254  1  0   0   0   0  0  0
  255  0  0   7   8   9  1  0
  256  1  0   0   0   0  0  0
  257  0  8   0   0   5  0  0
  258  0  0   0   0   6  0  0
  259  1  0   0   0   0  0  0
  260  0  0  10   7   9  1  0
  261  1  0   0   0   0  0  0
  262  0  9   0   0   5  0  0
  263  0  0   0   0   6  0  0
  264  1  0   0   0   0  0  0
  265  0  0  11  10   9  1  0
  266  1  0   0   0   0  0  0
  267  0 10   0   0   5  0  0
  268  0  0   0   0   6  0  0
  269  1  0   0   0   0  0  0
  270  0  0   8  11   9  1  0
  271  1  0   0   0   0  0  0
  272  0  0  12  12  12  0  0
  273  4  0   0   0   0  0  0
  274  0  1   0   0   0  0  0
  275  0  0   1   1   1  0  0
  276  1  0   0   0   0  0  0
  277  0  2   0   0   0  0  0
  278  2  0   0   0   0  0  0
  279  0  3   0   0  19  0  0
  280  2  0   0   0   0  0  0
  281  0  4   0   0   0  0  0
  282  2  0   0   0   0  0  0
  283  0  5   0   0  20  0  0
  284  2  0   0   0   0  0  0
  285  0  6   0   0   0  0  0
  286  2  0   0   0   0  0  0
  287  0  3   0   0  19  0  0
  288  2  0   0   0   0  0  0
  289  0  0   4   4   4  0  0
  290  3  0   0   0   0  0  0
  291  0  7   0   0   5  0  0
  292  0  0   0   0   6  0  0
  293  1  0   0   0   0  0  0
  294  0  0   7   8   9  1  0
  295  1  0   0   0   0  0  0
  296  0  8   0   0   5  0  0
  297  0  0   0   0   6  0  0
  298  1  0   0   0   0  0  0
  299  0  0  10   7   9  1  0
  300  1  0   0   0   0  0  0
  301  0  9   0   0   5  0  0
  302  0  0   0   0   6  0  0
  303  1  0   0   0   0  0  0
  304  0  0  11  10   9  1  0
  305  1  0   0   0   0  0  0
  306  0 10   0   0   5  0  0
  307  0  0   0   0   6  0  0
  308  1  0   0   0   0  0  0
  309  0  0   8  11   9  1  0
  310  1  0   0   0   0  0  0
  311  0  0  12  12  12  0  0
  312  4  0   0   0   0  0  0
  313  0  1   0   0   0  0  0
  314  0  0   1   1   1  0  0
  315  1  0   0   0   0  0  0
  316  0  2   0   0   0  0  0
  317  2  0   0   0   0  0  0
  318  0  3   0   0  21  0  0
  319  2  0   0   0   0  0  0
  320  0  4   0   0   0  0  0
  321  2  0   0   0   0  0  0
  322  0  5   0   0  22  0  0
  323  2  0   0   0   0  0  0
  324  0  6   0   0   0  0  0
[RF]
1      93.7659 1 2 100 -420 0
2          600 3 4 100 0 0
3      47.8652 6 7 100 0 0
4      886.109 8 9 100 0 0
5      47.8652 11 12 100 0 3.14159
6      886.109 8 9 100 0 3.14159
7      195.895 13 14 100 -4000 1.5708
8      230.638 13 14 100 -4000 1.5708
9      295.422 13 14 100 -4000 1.5708
10      610.553 13 14 100 -4000 1.5708

# Format of arbitrary gradients:
# id amplitude shape_id delay
# ..      Hz/m     ....    us
[GRADIENTS]
2       4.2576 5 0
3       4.2576 10 0
7  1.04589e+06 15 0
8  1.04589e+06 16 0
10  1.04589e+06 17 0
11  1.04589e+06 18 0
13       4.2576 19 0
14       4.2576 20 0
15       4.2576 21 0
16       4.2576 22 0
17       4.2576 23 0
18       4.2576 24 0
19       4.2576 25 0
20       4.2576 26 0
21       4.2576 27 0
22       4.2576 28 0
23       4.2576 29 0
24       4.2576 30 0
25       4.2576 31 0
26       4.2576 32 0
27       4.2576 33 0
28       4.2576 34 0
29       4.2576 35 0
30       4.2576 36 0
31       4.2576 37 0
32       4.2576 38 0
33       4.2576 39 0
34       4.2576 40 0
35       4.2576 41 0
36       4.2576 42 0
37       4.2576 43 0
38       4.2576 44 0
39       4.2576 45 0
40       4.2576 46 0
41       4.2576 47 0
42       4.2576 48 0
43       4.2576 49 0
44       4.2576 50 0
45       4.2576 51 0
46       4.2576 52 0
47       4.2576 53 0
48       4.2576 54 0
49       4.2576 55 0
50       4.2576 56 0
51       10.644 5 0
52       10.644 10 0
53       10.644 19 0
54       10.644 20 0
55       10.644 21 0
56       10.644 22 0
57       10.644 23 0
58       10.644 24 0
59       10.644 25 0
60       10.644 26 0
61       10.644 27 0
62       10.644 28 0
63       10.644 29 0
64       10.644 30 0
65       10.644 31 0
66       10.644 32 0
67       10.644 33 0
68       10.644 34 0
69       10.644 35 0
70       10.644 36 0
71       10.644 37 0
72       10.644 38 0
73       10.644 39 0
74       10.644 40 0
75       10.644 41 0
76       10.644 42 0
77       10.644 43 0
78       10.644 44 0
79       10.644 45 0
80       10.644 46 0
81       10.644 47 0
82       10.644 48 0
83       10.644 49 0
84       10.644 50 0
85       10.644 51 0
86       10.644 52 0
87       10.644 53 0
88       10.644 54 0
89       10.644 55 0
90       10.644 56 0
91       21.288 5 0
92       21.288 10 0
93       21.288 19 0
94       21.288 20 0
95       21.288 21 0
96       21.288 22 0
97       21.288 23 0
98       21.288 24 0
99       21.288 25 0
100       21.288 26 0
101       21.288 27 0
102       21.288 28 0
103       21.288 29 0
104       21.288 30 0
105       21.288 31 0
106       21.288 32 0
107       21.288 33 0
108       21.288 34 0
109       21.288 35 0
110       21.288 36 0
111       21.288 37 0
112       21.288 38 0
113       21.288 39 0
114       21.288 40 0
115       21.288 41 0
116       21.288 42 0
117       21.288 43 0
118       21.288 44 0
119       21.288 45 0
120       21.288 46 0
121       21.288 47 0
122       21.288 48 0
123       21.288 49 0
124       21.288 50 0
125       21.288 51 0
126       21.288 52 0
127       21.288 53 0
128       21.288 54 0
129       21.288 55 0
130       21.288 56 0
131       31.932 5 0
132       31.932 10 0
133       31.932 19 0
134       31.932 20 0
135       31.932 21 0
136       31.932 22 0
137       31.932 23 0
138       31.932 24 0
139       31.932 25 0
140       31.932 26 0
141       31.932 27 0
142       31.932 28 0
143       31.932 29 0
144       31.932 30 0
145       31.932 31 0
146       31.932 32 0
147       31.932 33 0
148       31.932 34 0
149       31.932 35 0
150       31.932 36 0
151       31.932 37 0
152       31.932 38 0
153       31.932 39 0
154       31.932 40 0
155       31.932 41 0
156       31.932 42 0
157       31.932 43 0
158       31.932 44 0
159       31.932 45 0
160       31.932 46 0
161       31.932 47 0
162       31.932 48 0
163       31.932 49 0
164       31.932 50 0
165       31.932 51 0
166       31.932 52 0
167       31.932 53 0
168       31.932 54 0
169       31.932 55 0
170       31.932 56 0
171       42.576 5 0
172       42.576 10 0
173       42.576 19 0
174       42.576 20 0
175       42.576 21 0
176       42.576 22 0
177       42.576 23 0
178       42.576 24 0
179       42.576 25 0
180       42.576 26 0
181       42.576 27 0
182       42.576 28 0
183       42.576 29 0
184       42.576 30 0
185       42.576 31 0
186       42.576 32 0
187       42.576 33 0
188       42.576 34 0
189       42.576 35 0
190       42.576 36 0
191       42.576 37 0
192       42.576 38 0
193       42.576 39 0
194       42.576 40 0
195       42.576 41 0
196       42.576 42 0
197       42.576 43 0
198       42.576 44 0
199       42.576 45 0
200       42.576 46 0
201       42.576 47 0
202       42.576 48 0
203       42.576 49 0
204       42.576 50 0
205       42.576 51 0
206       42.576 52 0
207       42.576 53 0
208       42.576 54 0
209       42.576 55 0
210       42.576 56 0
211       85.152 5 0
212       85.152 10 0
213       85.152 19 0
214       85.152 20 0
215       85.152 21 0
216       85.152 22 0
217       85.152 23 0
218       85.152 24 0
219       85.152 25 0
220       85.152 26 0
221       85.152 27 0
222       85.152 28 0
223       85.152 29 0
224       85.152 30 0
225       85.152 31 0
226       85.152 32 0
227       85.152 33 0
228       85.152 34 0
229       85.152 35 0
230       85.152 36 0
231       85.152 37 0
232       85.152 38 0
233       85.152 39 0
234       85.152 40 0
235       85.152 41 0
236       85.152 42 0
237       85.152 43 0
238       85.152 44 0
239       85.152 45 0
240       85.152 46 0
241       85.152 47 0
242       85.152 48 0
243       85.152 49 0
244       85.152 50 0
245       85.152 51 0
246       85.152 52 0
247       85.152 53 0
248       85.152 54 0
249       85.152 55 0
250       85.152 56 0
251      127.728 5 0
252      127.728 10 0
253      127.728 19 0
254      127.728 20 0
255      127.728 21 0
256      127.728 22 0
257      127.728 23 0
258      127.728 24 0
259      127.728 25 0
260      127.728 26 0
261      127.728 27 0
262      127.728 28 0
263      127.728 29 0
264      127.728 30 0
265      127.728 31 0
266      127.728 32 0
267      127.728 33 0
268      127.728 34 0
269      127.728 35 0
270      127.728 36 0
271      127.728 37 0
272      127.728 38 0
273      127.728 39 0
274      127.728 40 0
275      127.728 41 0
276      127.728 42 0
277      127.728 43 0
278      127.728 44 0
279      127.728 45 0
280      127.728 46 0
281      127.728 47 0
282      127.728 48 0
283      127.728 49 0
284      127.728 50 0
285      127.728 51 0
286      127.728 52 0
287      127.728 53 0
288      127.728 54 0
289      127.728 55 0
290      127.728 56 0
291      170.304 5 0
292      170.304 10 0
293      170.304 19 0
294      170.304 20 0
295      170.304 21 0
296      170.304 22 0
297      170.304 23 0
298      170.304 24 0
299      170.304 25 0
300      170.304 26 0
301      170.304 27 0
302      170.304 28 0
303      170.304 29 0
304      170.304 30 0
305      170.304 31 0
306      170.304 32 0
307      170.304 33 0
308      170.304 34 0
309      170.304 35 0
310      170.304 36 0
311      170.304 37 0
312      170.304 38 0
313      170.304 39 0
314      170.304 40 0
315      170.304 41 0
316      170.304 42 0
317      170.304 43 0
318      170.304 44 0
319      170.304 45 0
320      170.304 46 0
321      170.304 47 0
322      170.304 48 0
323      170.304 49 0
324      170.304 50 0
325      170.304 51 0
326      170.304 52 0
327      170.304 53 0
328      170.304 54 0
329      170.304 55 0
330      170.304 56 0
331       212.88 5 0
332       212.88 10 0
333       212.88 19 0
334       212.88 20 0
335       212.88 21 0
336       212.88 22 0
337       212.88 23 0
338       212.88 24 0
339       212.88 25 0
340       212.88 26 0
341       212.88 27 0
342       212.88 28 0
343       212.88 29 0
344       212.88 30 0
345       212.88 31 0
346       212.88 32 0
347       212.88 33 0
348       212.88 34 0
349       212.88 35 0
350       212.88 36 0
351       212.88 37 0
352       212.88 38 0
353       212.88 39 0
354       212.88 40 0
355       212.88 41 0
356       212.88 42 0
357       212.88 43 0
358       212.88 44 0
359       212.88 45 0
360       212.88 46 0
361       212.88 47 0
362       212.88 48 0
363       212.88 49 0
364       212.88 50 0
365       212.88 51 0
366       212.88 52 0
367       212.88 53 0
368       212.88 54 0
369       212.88 55 0
370       212.88 56 0
371      255.456 5 0
372      255.456 10 0
373      255.456 19 0
374      255.456 20 0
375      255.456 21 0
376      255.456 22 0
377      255.456 23 0
378      255.456 24 0
379      255.456 25 0
380      255.456 26 0
381      255.456 27 0
382      255.456 28 0
383      255.456 29 0
384      255.456 30 0
385      255.456 31 0
386      255.456 32 0
387      255.456 33 0
388      255.456 34 0
389      255.456 35 0
390      255.456 36 0
391      255.456 37 0
392      255.456 38 0
393      255.456 39 0
394      255.456 40 0
395      255.456 41 0
396      255.456 42 0
397      255.456 43 0
398      255.456 44 0
399      255.456 45 0
400      255.456 46 0
401      255.456 47 0
402      255.456 48 0
403      255.456 49 0
404      255.456 50 0
405      255.456 51 0
406      255.456 52 0
407      255.456 53 0
408      255.456 54 0
409      255.456 55 0
410      255.456 56 0
411      298.032 5 0
412      298.032 10 0
413      298.032 19 0
414      298.032 20 0
415      298.032 21 0
416      298.032 22 0
417      298.032 23 0
418      298.032 24 0
419      298.032 25 0
420      298.032 26 0
421      298.032 27 0
422      298.032 28 0
423      298.032 29 0
424      298.032 30 0
425      298.032 31 0
426      298.032 32 0
427      298.032 33 0
428      298.032 34 0
429      298.032 35 0
430      298.032 36 0
431      298.032 37 0
432      298.032 38 0
433      298.032 39 0
434      298.032 40 0
435      298.032 41 0
436      298.032 42 0
437      298.032 43 0
438      298.032 44 0
439      298.032 45 0
440      298.032 46 0
441      298.032 47 0
442      298.032 48 0
443      298.032 49 0
444      298.032 50 0
445      298.032 51 0
446      298.032 52 0
447      298.032 53 0
448      298.032 54 0
449      298.032 55 0
450      298.032 56 0
451      340.608 5 0
452      340.608 10 0
453      340.608 19 0
454      340.608 20 0
455      340.608 21 0
456      340.608 22 0
457      340.608 23 0
458      340.608 24 0
459      340.608 25 0
460      340.608 26 0
461      340.608 27 0
462      340.608 28 0
463      340.608 29 0
464      340.608 30 0
465      340.608 31 0
466      340.608 32 0
467      340.608 33 0
468      340.608 34 0
469      340.608 35 0
470      340.608 36 0
471      340.608 37 0
472      340.608 38 0
473      340.608 39 0
474      340.608 40 0
475      340.608 41 0
476      340.608 42 0
477      340.608 43 0
478      340.608 44 0
479      340.608 45 0
480      340.608 46 0
481      340.608 47 0
482      340.608 48 0
483      340.608 49 0
484      340.608 50 0
485      340.608 51 0
486      340.608 52 0
487      340.608 53 0
488      340.608 54 0
489      340.608 55 0
490      340.608 56 0
491      383.184 5 0
492      383.184 10 0
493      383.184 19 0
494      383.184 20 0
495      383.184 21 0
496      383.184 22 0
497      383.184 23 0
498      383.184 24 0
499      383.184 25 0
500      383.184 26 0
501      383.184 27 0
502      383.184 28 0
503      383.184 29 0
504      383.184 30 0
505      383.184 31 0
506      383.184 32 0
507      383.184 33 0
508      383.184 34 0
509      383.184 35 0
510      383.184 36 0
511      383.184 37 0
512      383.184 38 0
513      383.184 39 0
514      383.184 40 0
515      383.184 41 0
516      383.184 42 0
517      383.184 43 0
518      383.184 44 0
519      383.184 45 0
520      383.184 46 0
521      383.184 47 0
522      383.184 48 0
523      383.184 49 0
524      383.184 50 0
525      383.184 51 0
526      383.184 52 0
527      383.184 53 0
528      383.184 54 0
529      383.184 55 0
530      383.184 56 0
531       425.76 5 0
532       425.76 10 0
533       425.76 19 0
534       425.76 20 0
535       425.76 21 0
536       425.76 22 0
537       425.76 23 0
538       425.76 24 0
539       425.76 25 0
540       425.76 26 0
541       425.76 27 0
542       425.76 28 0
543       425.76 29 0
544       425.76 30 0
545       425.76 31 0
546       425.76 32 0
547       425.76 33 0
548       425.76 34 0
549       425.76 35 0
550       425.76 36 0
551       425.76 37 0
552       425.76 38 0
553       425.76 39 0
554       425.76 40 0
555       425.76 41 0
556       425.76 42 0
557       425.76 43 0
558       425.76 44 0
559       425.76 45 0
560       425.76 46 0
561       425.76 47 0
562       425.76 48 0
563       425.76 49 0
564       425.76 50 0
565       425.76 51 0
566       425.76 52 0
567       425.76 53 0
568       425.76 54 0
569       425.76 55 0
570       425.76 56 0

# Format of trapezoid gradients:
# id amplitude rise flat fall delay
# ..      Hz/m   us   us   us    us
[TRAP]
 1       770272 110 2780 110   0
 4       278261 250 3000 250   0
 5       400000  60 2000  60  40
 6      -443011  70  860  70   0
 9       412371  60 1880  60 11000
12       406091  60 3880  60   0

# Format of ADC events:
# id num dwell delay freq phase
# ..  ..    ns    us   Hz   rad
[ADC]
1 2000 5500 0 0 0

# Format of delays:
# id delay (us)
[DELAYS]
1 50
2 10
3 1000
4 1000000

# Sequence Shapes
[SHAPES]

shape_id 1
num_samples 8100
0.0008545
3e-06
3e-06
0
3.1e-06
3e-06
3.1e-06
3e-06
3.1e-06
3.1e-06
2
3.2e-06
3.1e-06
3.1e-06
0
3.2e-06
3.2e-06
0
3.1e-06
3.2e-06
3.2e-06
1
3.3e-06
3.2e-06
3.2e-06
0
3.3e-06
3.2e-06
3.3e-06
3.3e-06
4
3.4e-06
3.3e-06
3.4e-06
3.3e-06
3.4e-06
3.4e-06
3
3.5e-06
3.4e-06
3.5e-06
3.4e-06
3.5e-06
3.5e-06
2
3.6e-06
3.5e-06
3.5e-06
0
3.6e-06
3.6e-06
1
3.5e-06
3.7e-06
3.6e-06
3.6e-06
1
3.7e-06
3.7e-06
0
3.6e-06
3.7e-06
3.7e-06
1
3.8e-06
3.7e-06
3.7e-06
0
3.8e-06
3.8e-06
5
3.9e-06
3.8e-06
3.9e-06
3.9e-06
4
4e-06
3.9e-06
4e-06
4e-06
3
4.1e-06
4e-06
4.1e-06
4e-06
4.1e-06
4.1e-06
1
4.2e-06
4.1e-06
4.2e-06
4.1e-06
4.2e-06
4.2e-06
2
4.3e-06
4.2e-06
4.3e-06
4.2e-06
4.3e-06
4.3e-06
1
4.4e-06
4.3e-06
4.4e-06
4.3e-06
4.4e-06
4.4e-06
2
4.5e-06
4.4e-06
4.5e-06
4.5e-06
3
4.6e-06
4.5e-06
4.6e-06
4.6e-06
4
4.7e-06
4.7e-06
5
4.8e-06
4.8e-06
4
4.9e-06
4.8e-06
4.9e-06
4.9e-06
2
5e-06
4.9e-06
5e-06
5e-06
2
5.1e-06
5e-06
5.1e-06
5.1e-06
3
5.2e-06
5.1e-06
5.2e-06
5.2e-06
2
5.3e-06
5.3e-06
0
5.2e-06
5.3e-06
5.3e-06
0
5.4e-06
5.3e-06
5.4e-06
5.3e-06
5.4e-06
5.4e-06
0
5.5e-06
5.4e-06
5.5e-06
5.5e-06
4
5.6e-06
5.6e-06
3
5.7e-06
5.7e-06
0
5.6e-06
5.7e-06
5.8e-06
5.7e-06
5.8e-06
5.7e-06
5.8e-06
5.8e-06
0
5.9e-06
5.8e-06
5.9e-06
5.9e-06
3
6e-06
6e-06
0
5.9e-06
6.1e-06
6e-06
6e-06
0
6.1e-06
6.1e-06
2
6.2e-06
6.1e-06
6.2e-06
6.2e-06
2
6.3e-06
6.3e-06
3
6.4e-06
6.3e-06
6.4e-06
6.4e-06
0
6.5e-06
6.4e-06
6.5e-06
6.5e-06
2
6.6e-06
6.5e-06
6.6e-06
6.6e-06
0
6.7e-06
6.6e-06
6.7e-06
6.7e-06
2
6.8e-06
6.8e-06
0
6.7e-06
6.9e-06
6.8e-06
6.9e-06
6.8e-06
6.9e-06
6.9e-06
0
7e-06
6.9e-06
7e-06
7e-06
0
7.1e-06
7e-06
7.1e-06
7.1e-06
3
7.2e-06
7.2e-06
1
7.3e-06
7.2e-06
7.3e-06
7.3e-06
1
7.4e-06
7.4e-06
3
7.5e-06
7.5e-06
3
7.6e-06
7.6e-06
1
7.7e-06
7.6e-06
7.7e-06
7.7e-06
0
7.8e-06
7.7e-06
7.8e-06
7.8e-06
0
7.9e-06
7.8e-06
7.9e-06
7.9e-06
1
8e-06
7.9e-06
8e-06
8e-06
0
8.1e-06
8e-06
8.1e-06
8.1e-06
0
8.2e-06
8.1e-06
8.2e-06
8.2e-06
0
8.3e-06
8.2e-06
8.3e-06
8.3e-06
0
8.4e-06
8.3e-06
8.4e-06
8.4e-06
0
8.5e-06
8.4e-06
8.5e-06
8.5e-06
1
8.6e-06
8.6e-06
2
8.7e-06
8.7e-06
2
8.8e-06
8.8e-06
1
8.9e-06
8.8e-06
8.9e-06
9e-06
8.9e-06
9e-06
9e-06
1
9.1e-06
9e-06
9.2e-06
9.1e-06
9.1e-06
0
9.2e-06
9.3e-06
9.2e-06
9.3e-06
9.3e-06
2
9.4e-06
9.4e-06
0
9.5e-06
9.4e-06
9.5e-06
9.5e-06
0
9.6e-06
9.6e-06
2
9.7e-06
9.6e-06
9.8e-06
9.7e-06
9.8e-06
9.8e-06
1
9.9e-06
9.9e-06
2
1e-05
1e-05
1
1.01e-05
1.01e-05
1
1.02e-05
1.01e-05
1.03e-05
1.02e-05
1.03e-05
1.03e-05
1
1.04e-05
1.03e-05
1.05e-05
1.04e-05
1.05e-05
1.05e-05
1
1.06e-05
1.06e-05
0
1.07e-05
1.06e-05
1.07e-05
1.07e-05
0
1.08e-05
1.08e-05
1
1.09e-05
1.08e-05
1.09e-05
1.1e-05
1.1e-05
2
1.11e-05
1.11e-05
1
1.12e-05
1.12e-05
1
1.13e-05
1.13e-05
1
1.14e-05
1.14e-05
1
1.15e-05
1.15e-05
1
1.16e-05
1.15e-05
1.17e-05
1.16e-05
1.17e-05
1.18e-05
1.17e-05
1.18e-05
1.18e-05
0
1.19e-05
1.19e-05
1
1.2e-05
1.2e-05
1
1.21e-05
1.21e-05
1
1.22e-05
1.22e-05
1
1.23e-05
1.23e-05
0
1.24e-05
1.23e-05
1.25e-05
1.24e-05
1.25e-05
1.25e-05
0
1.26e-05
1.26e-05
1
1.27e-05
1.27e-05
1
1.28e-05
1.28e-05
1
1.29e-05
1.29e-05
0
1.3e-05
1.3e-05
1
1.31e-05
1.31e-05
1
1.32e-05
1.32e-05
1
1.33e-05
1.34e-05
1.33e-05
1.34e-05
1.35e-05
1.34e-05
1.35e-05
1.36e-05
1.36e-05
1
1.37e-05
1.37e-05
1
1.38e-05
1.38e-05
0
1.39e-05
1.39e-05
1
1.4e-05
1.4e-05
0
1.41e-05
1.41e-05
1
1.42e-05
1.42e-05
0
1.43e-05
1.43e-05
1
1.44e-05
1.44e-05
1
1.45e-05
1.46e-05
1.46e-05
2
1.47e-05
1.48e-05
1.47e-05
1.49e-05
1.48e-05
1.49e-05
1.5e-05
1.5e-05
1
1.51e-05
1.51e-05
1
1.52e-05
1.53e-05
1.53e-05
2
1.55e-05
1.54e-05
1.55e-05
1.55e-05
0
1.56e-05
1.56e-05
0
1.57e-05
1.57e-05
0
1.58e-05
1.58e-05
1
1.59e-05
1.59e-05
0
1.6e-05
1.6e-05
0
1.61e-05
1.61e-05
1
1.62e-05
1.63e-05
1.62e-05
1.64e-05
1.64e-05
2
1.65e-05
1.66e-05
1.66e-05
1
1.67e-05
1.68e-05
1.67e-05
1.69e-05
1.69e-05
2
1.71e-05
1.7e-05
1.71e-05
1.72e-05
1.72e-05
1
1.73e-05
1.74e-05
1.73e-05
1.75e-05
1.75e-05
1
1.76e-05
1.76e-05
0
1.77e-05
1.77e-05
0
1.78e-05
1.78e-05
0
1.79e-05
1.79e-05
0
1.8e-05
1.8e-05
1
1.81e-05
1.82e-05
1.82e-05
0
1.83e-05
1.83e-05
1
1.85e-05
1.84e-05
1.85e-05
1.86e-05
1.86e-05
0
1.87e-05
1.87e-05
1
1.88e-05
1.89e-05
1.89e-05
0
1.9e-05
1.9e-05
0
1.91e-05
1.91e-05
0
1.92e-05
1.92e-05
0
1.93e-05
1.93e-05
0
1.94e-05
1.94e-05
0
1.95e-05
1.95e-05
0
1.96e-05
1.96e-05
0
1.97e-05
1.98e-05
1.98e-05
1
1.99e-05
2e-05
2e-05
0
2.01e-05
2.01e-05
1
2.03e-05
2.02e-05
2.04e-05
2.04e-05
1
2.05e-05
2.06e-05
2.06e-05
1
2.08e-05
2.07e-05
2.09e-05
2.08e-05
2.1e-05
2.1e-05
1
2.11e-05
2.12e-05
2.12e-05
0
2.13e-05
2.13e-05
0
2.14e-05
2.15e-05
2.15e-05
1
2.16e-05
2.17e-05
2.17e-05
0
2.18e-05
2.19e-05
2.19e-05
1
2.21e-05
2.2e-05
2.22e-05
2.22e-05
1
2.23e-05
2.24e-05
2.25e-05
2.24e-05
2.26e-05
2.26e-05
0
2.27e-05
2.27e-05
0
2.28e-05
2.28e-05
0
2.29e-05
2.3e-05
2.3e-05
0
2.31e-05
2.32e-05
2.32e-05
0
2.33e-05
2.33e-05
0
2.34e-05
2.34e-05
0
2.36e-05
2.35e-05
2.37e-05
2.37e-05
1
2.39e-05
2.38e-05
2.4e-05
2.4e-05
0
2.41e-05
2.41e-05
0
2.42e-05
2.43e-05
2.43e-05
0
2.44e-05
2.45e-05
2.45e-05
0
2.46e-05
2.46e-05
0
2.47e-05
2.48e-05
2.48e-05
0
2.49e-05
2.5e-05
2.5e-05
0
2.51e-05
2.52e-05
2.52e-05
0
2.53e-05
2.54e-05
2.54e-05
0
2.55e-05
2.56e-05
2.56e-05
0
2.57e-05
2.57e-05
0
2.58e-05
2.59e-05
2.6e-05
2.6e-05
0
2.61e-05
2.62e-05
2.62e-05
0
2.63e-05
2.63e-05
0
2.65e-05
2.65e-05
1
2.67e-05
2.67e-05
1
2.69e-05
2.69e-05
0
2.7e-05
2.7e-05
0
2.71e-05
2.72e-05
2.73e-05
2.73e-05
0
2.74e-05
2.74e-05
0
2.76e-05
2.76e-05
0
2.77e-05
2.77e-05
0
2.78e-05
2.79e-05
2.8e-05
2.8e-05
0
2.81e-05
2.82e-05
2.82e-05
0
2.83e-05
2.84e-05
2.85e-05
2.85e-05
0
2.86e-05
2.87e-05
2.88e-05
2.88e-05
0
2.89e-05
2.9e-05
2.9e-05
0
2.92e-05
2.91e-05
2.93e-05
2.94e-05
2.94e-05
0
2.95e-05
2.95e-05
0
2.97e-05
2.97e-05
0
2.98e-05
2.99e-05
2.99e-05
0
3e-05
3.01e-05
3.02e-05
3.02e-05
0
3.04e-05
3.04e-05
1
3.06e-05
3.06e-05
0
3.07e-05
3.08e-05
3.09e-05
3.09e-05
0
3.1e-05
3.11e-05
3.12e-05
3.12e-05
0
3.14e-05
3.14e-05
0
3.15e-05
3.15e-05
0
3.17e-05
3.17e-05
0
3.18e-05
3.19e-05
3.2e-05
3.2e-05
0
3.21e-05
3.22e-05
3.23e-05
3.24e-05
3.24e-05
0
3.25e-05
3.27e-05
3.26e-05
3.28e-05
3.29e-05
3.29e-05
0
3.3e-05
3.31e-05
3.32e-05
3.33e-05
3.33e-05
0
3.34e-05
3.35e-05
3.36e-05
3.37e-05
3.38e-05
3.38e-05
0
3.4e-05
3.4e-05
0
3.41e-05
3.41e-05
0
3.43e-05
3.44e-05
3.44e-05
0
3.45e-05
3.46e-05
3.47e-05
3.48e-05
3.49e-05
3.49e-05
0
3.5e-05
3.52e-05
3.52e-05
0
3.53e-05
3.54e-05
3.54e-05
0
3.56e-05
3.56e-05
0
3.58e-05
3.58e-05
0
3.59e-05
3.6e-05
3.61e-05
3.61e-05
0
3.63e-05
3.64e-05
3.64e-05
0
3.65e-05
3.66e-05
3.67e-05
3.68e-05
3.69e-05
3.7e-05
3.71e-05
3.71e-05
0
3.73e-05
3.73e-05
0
3.75e-05
3.75e-05
0
3.76e-05
3.77e-05
3.78e-05
3.79e-05
3.8e-05
3.8e-05
0
3.82e-05
3.83e-05
3.83e-05
0
3.85e-05
3.85e-05
0
3.86e-05
3.88e-05
3.88e-05
0
3.89e-05
3.9e-05
3.91e-05
3.92e-05
3.93e-05
3.94e-05
