# Pulseq sequence file
# Created by MATLAB mr toolbox

[VERSION]
major 1
minor 3
revision 1

[DEFINITIONS]
FOV 0.24 0.24 0.005 
Name pulseq_spiral_S0 
Rot_Matrix 1 0 0 0 1 0 0 0 1 
Scan_ID 201071845 

# Format of blocks:
#  #  D RF  GX  GY  GZ ADC EXT
[BLOCKS]
  1  0  1   0   0   0  0  0
  2  0  0   1   1   1  0  0
  3  1  0   0   0   0  0  0
  4  0  2   0   0   2  0  0
  5  0  0   0   0   3  0  0
  6  1  0   0   0   0  0  0
  7  0  0   4   5   6  0  0
  8  1  0   0   0   0  0  0
  9  0  3   0   0   2  0  0
 10  0  0   0   0   3  0  0
 11  1  0   0   0   0  0  0
 12  0  0   7   4   6  0  0
 13  1  0   0   0   0  0  0
 14  0  4   0   0   2  0  0
 15  0  0   0   0   3  0  0
 16  1  0   0   0   0  0  0
 17  0  0   8   7   6  0  0
 18  1  0   0   0   0  0  0
 19  0  5   0   0   2  0  0
 20  0  0   0   0   3  0  0
 21  1  0   0   0   0  0  0
 22  0  0   5   8   6  0  0
 23  1  0   0   0   0  0  0
 24  0  0   9   9   9  0  0
 25  2  0   0   0   0  0  0
 26  0  1   0   0   0  0  0
 27  0  0   1   1   1  0  0
 28  1  0   0   0   0  0  0
 29  0  2   0   0   2  0  0
 30  0  0   0   0   3  0  0
 31  1  0   0   0   0  0  0
 32  0  0   4   5   6  0  0
 33  1  0   0   0   0  0  0
 34  0  3   0   0   2  0  0
 35  0  0   0   0   3  0  0
 36  1  0   0   0   0  0  0
 37  0  0   7   4   6  0  0
 38  1  0   0   0   0  0  0
 39  0  4   0   0   2  0  0
 40  0  0   0   0   3  0  0
 41  1  0   0   0   0  0  0
 42  0  0   8   7   6  0  0
 43  1  0   0   0   0  0  0
 44  0  5   0   0   2  0  0
 45  0  0   0   0   3  0  0
 46  1  0   0   0   0  0  0
 47  0  0   5   8   6  0  0
 48  1  0   0   0   0  0  0
 49  0  0   9   9   9  0  0
 50  2  0   0   0   0  0  0
 51  0  1   0   0   0  0  0
 52  0  0   1   1   1  0  0
 53  1  0   0   0   0  0  0
 54  0  2   0   0   2  0  0
 55  0  0   0   0   3  0  0
 56  1  0   0   0   0  0  0
 57  0  0   4   5   6  0  0
 58  1  0   0   0   0  0  0
 59  0  3   0   0   2  0  0
 60  0  0   0   0   3  0  0
 61  1  0   0   0   0  0  0
 62  0  0   7   4   6  0  0
 63  1  0   0   0   0  0  0
 64  0  4   0   0   2  0  0
 65  0  0   0   0   3  0  0
 66  1  0   0   0   0  0  0
 67  0  0   8   7   6  0  0
 68  1  0   0   0   0  0  0
 69  0  5   0   0   2  0  0
 70  0  0   0   0   3  0  0
 71  1  0   0   0   0  0  0
 72  0  0   5   8   6  0  0
 73  1  0   0   0   0  0  0
 74  0  0   9   9   9  0  0
 75  2  0   0   0   0  0  0
 76  0  1   0   0   0  0  0
 77  0  0   1   1   1  0  0
 78  1  0   0   0   0  0  0
 79  0  2   0   0   2  0  0
 80  0  0   0   0   3  0  0
 81  1  0   0   0   0  0  0
 82  0  0   4   5   6  1  0
 83  1  0   0   0   0  0  0
 84  0  3   0   0   2  0  0
 85  0  0   0   0   3  0  0
 86  1  0   0   0   0  0  0
 87  0  0   7   4   6  1  0
 88  1  0   0   0   0  0  0
 89  0  4   0   0   2  0  0
 90  0  0   0   0   3  0  0
 91  1  0   0   0   0  0  0
 92  0  0   8   7   6  1  0
 93  1  0   0   0   0  0  0
 94  0  5   0   0   2  0  0
 95  0  0   0   0   3  0  0
 96  1  0   0   0   0  0  0
 97  0  0   5   8   6  1  0
 98  1  0   0   0   0  0  0
 99  0  0   9   9   9  0  0
100  2  0   0   0   0  0  0
101  0  1   0   0   0  0  0
102  0  0   1   1   1  0  0
103  1  0   0   0   0  0  0
104  0  2   0   0   2  0  0
105  0  0   0   0   3  0  0
106  1  0   0   0   0  0  0
107  0  0   4   5   6  1  0
108  1  0   0   0   0  0  0
109  0  3   0   0   2  0  0
110  0  0   0   0   3  0  0
111  1  0   0   0   0  0  0
112  0  0   7   4   6  1  0
113  1  0   0   0   0  0  0
114  0  4   0   0   2  0  0
115  0  0   0   0   3  0  0
116  1  0   0   0   0  0  0
117  0  0   8   7   6  1  0
118  1  0   0   0   0  0  0
119  0  5   0   0   2  0  0
120  0  0   0   0   3  0  0
121  1  0   0   0   0  0  0
122  0  0   5   8   6  1  0
123  1  0   0   0   0  0  0
124  0  0   9   9   9  0  0
125  2  0   0   0   0  0  0
126  0  1   0   0   0  0  0
127  0  0   1   1   1  0  0
128  1  0   0   0   0  0  0
129  0  2   0   0   2  0  0
130  0  0   0   0   3  0  0
131  1  0   0   0   0  0  0
132  0  0   4   5   6  1  0
133  1  0   0   0   0  0  0
134  0  3   0   0   2  0  0
135  0  0   0   0   3  0  0
136  1  0   0   0   0  0  0
137  0  0   7   4   6  1  0
138  1  0   0   0   0  0  0
139  0  4   0   0   2  0  0
140  0  0   0   0   3  0  0
141  1  0   0   0   0  0  0
142  0  0   8   7   6  1  0
143  1  0   0   0   0  0  0
144  0  5   0   0   2  0  0
145  0  0   0   0   3  0  0
146  1  0   0   0   0  0  0
147  0  0   5   8   6  1  0
148  1  0   0   0   0  0  0
149  0  0   9   9   9  0  0
150  2  0   0   0   0  0  0
151  0  1   0   0   0  0  0
152  0  0   1   1   1  0  0
153  1  0   0   0   0  0  0
154  0  2   0   0   2  0  0
155  0  0   0   0   3  0  0
156  1  0   0   0   0  0  0
157  0  0   4   5   6  1  0
158  1  0   0   0   0  0  0
159  0  3   0   0   2  0  0
160  0  0   0   0   3  0  0
161  1  0   0   0   0  0  0
162  0  0   7   4   6  1  0
163  1  0   0   0   0  0  0
164  0  4   0   0   2  0  0
165  0  0   0   0   3  0  0
166  1  0   0   0   0  0  0
167  0  0   8   7   6  1  0
168  1  0   0   0   0  0  0
169  0  5   0   0   2  0  0
170  0  0   0   0   3  0  0
171  1  0   0   0   0  0  0
172  0  0   5   8   6  1  0
173  1  0   0   0   0  0  0
174  0  0   9   9   9  0  0
175  2  0   0   0   0  0  0
176  0  1   0   0   0  0  0
177  0  0   1   1   1  0  0
178  1  0   0   0   0  0  0
179  0  2   0   0   2  0  0
180  0  0   0   0   3  0  0
181  1  0   0   0   0  0  0
182  0  0   4   5   6  1  0
183  1  0   0   0   0  0  0
184  0  3   0   0   2  0  0
185  0  0   0   0   3  0  0
186  1  0   0   0   0  0  0
187  0  0   7   4   6  1  0
188  1  0   0   0   0  0  0
189  0  4   0   0   2  0  0
190  0  0   0   0   3  0  0
191  1  0   0   0   0  0  0
192  0  0   8   7   6  1  0
193  1  0   0   0   0  0  0
194  0  5   0   0   2  0  0
195  0  0   0   0   3  0  0
196  1  0   0   0   0  0  0
197  0  0   5   8   6  1  0
198  1  0   0   0   0  0  0
199  0  0   9   9   9  0  0
200  2  0   0   0   0  0  0

# Format of RF events:
# id amplitude mag_id phase_id delay freq phase
# ..        Hz   ....     ....    us   Hz   rad
[RF]
1      93.7659 1 2 100 -420 0
2      195.895 3 4 100 -4000 1.5708
3      230.638 3 4 100 -4000 1.5708
4      295.422 3 4 100 -4000 1.5708
5      610.553 3 4 100 -4000 1.5708

# Format of arbitrary gradients:
# id amplitude shape_id delay
# ..      Hz/m     ....    us
[GRADIENTS]
4  1.04589e+06 5 0
5  1.04589e+06 6 0
7  1.04589e+06 7 0
8  1.04589e+06 8 0

# Format of trapezoid gradients:
# id amplitude rise flat fall delay
# ..      Hz/m   us   us   us    us
[TRAP]
 1       770272 110 2780 110   0
 2       400000  60 2000  60  40
 3      -443011  70  860  70   0
 6       412371  60 1880  60 11000
 9       406091  60 3880  60   0

# Format of ADC events:
# id num dwell delay freq phase
# ..  ..    ns    us   Hz   rad
[ADC]
1 2000 5500 0 0 0

# Format of delays:
# id delay (us)
[DELAYS]
1 50
2 1000000

# Sequence Shapes
[SHAPES]

shape_id 1
num_samples 8100
0.0008545
3e-06
3e-06
0
3.1e-06
3e-06
3.1e-06
3e-06
3.1e-06
3.1e-06
2
3.2e-06
3.1e-06
3.1e-06
0
3.2e-06
3.2e-06
0
3.1e-06
3.2e-06
3.2e-06
1
3.3e-06
3.2e-06
3.2e-06
0
3.3e-06
3.2e-06
3.3e-06
3.3e-06
4
3.4e-06
3.3e-06
3.4e-06
3.3e-06
3.4e-06
3.4e-06
3
3.5e-06
3.4e-06
3.5e-06
3.4e-06
3.5e-06
3.5e-06
2
3.6e-06
3.5e-06
3.5e-06
0
3.6e-06
3.6e-06
1
3.5e-06
3.7e-06
3.6e-06
3.6e-06
1
3.7e-06
3.7e-06
0
3.6e-06
3.7e-06
3.7e-06
1
3.8e-06
3.7e-06
3.7e-06
0
3.8e-06
3.8e-06
5
3.9e-06
3.8e-06
3.9e-06
3.9e-06
4
4e-06
3.9e-06
4e-06
4e-06
3
4.1e-06
4e-06
4.1e-06
4e-06
4.1e-06
4.1e-06
1
4.2e-06
4.1e-06
4.2e-06
4.1e-06
4.2e-06
4.2e-06
2
4.3e-06
4.2e-06
4.3e-06
4.2e-06
4.3e-06
4.3e-06
1
4.4e-06
4.3e-06
4.4e-06
4.3e-06
4.4e-06
4.4e-06
2
4.5e-06
4.4e-06
4.5e-06
4.5e-06
3
4.6e-06
4.5e-06
4.6e-06
4.6e-06
4
4.7e-06
4.7e-06
5
4.8e-06
4.8e-06
4
4.9e-06
4.8e-06
4.9e-06
4.9e-06
2
5e-06
4.9e-06
5e-06
5e-06
2
5.1e-06
5e-06
5.1e-06
5.1e-06
3
5.2e-06
5.1e-06
5.2e-06
5.2e-06
2
5.3e-06
5.3e-06
0
5.2e-06
5.3e-06
5.3e-06
0
5.4e-06
5.3e-06
5.4e-06
5.3e-06
5.4e-06
5.4e-06
0
5.5e-06
5.4e-06
5.5e-06
5.5e-06
4
5.6e-06
5.6e-06
3
5.7e-06
5.7e-06
0
5.6e-06
5.7e-06
5.8e-06
5.7e-06
5.8e-06
5.7e-06
5.8e-06
5.8e-06
0
5.9e-06
5.8e-06
5.9e-06
5.9e-06
3
6e-06
6e-06
0
5.9e-06
6.1e-06
6e-06
6e-06
0
6.1e-06
6.1e-06
2
6.2e-06
6.1e-06
6.2e-06
6.2e-06
2
6.3e-06
6.3e-06
3
6.4e-06
6.3e-06
6.4e-06
6.4e-06
0
6.5e-06
6.4e-06
6.5e-06
6.5e-06
2
6.6e-06
6.5e-06
6.6e-06
6.6e-06
0
6.7e-06
6.6e-06
6.7e-06
6.7e-06
2
6.8e-06
6.8e-06
0
6.7e-06
6.9e-06
6.8e-06
6.9e-06
6.8e-06
6.9e-06
6.9e-06
0
7e-06
6.9e-06
7e-06
7e-06
0
7.1e-06
7e-06
7.1e-06
7.1e-06
3
7.2e-06
7.2e-06
1
7.3e-06
7.2e-06
7.3e-06
7.3e-06
1
7.4e-06
7.4e-06
3
7.5e-06
7.5e-06
3
7.6e-06
7.6e-06
1
7.7e-06
7.6e-06
7.7e-06
7.7e-06
0
7.8e-06
7.7e-06
7.8e-06
7.8e-06
0
7.9e-06
7.8e-06
7.9e-06
7.9e-06
1
8e-06
7.9e-06
8e-06
8e-06
0
8.1e-06
8e-06
8.1e-06
8.1e-06
0
8.2e-06
8.1e-06
8.2e-06
8.2e-06
0
8.3e-06
8.2e-06
8.3e-06
8.3e-06
0
8.4e-06
8.3e-06
8.4e-06
8.4e-06
0
8.5e-06
8.4e-06
8.5e-06
8.5e-06
1
8.6e-06
8.6e-06
2
8.7e-06
8.7e-06
2
8.8e-06
8.8e-06
1
8.9e-06
8.8e-06
8.9e-06
9e-06
8.9e-06
9e-06
9e-06
1
9.1e-06
9e-06
9.2e-06
9.1e-06
9.1e-06
0
9.2e-06
9.3e-06
9.2e-06
9.3e-06
9.3e-06
2
9.4e-06
9.4e-06
0
9.5e-06
9.4e-06
9.5e-06
9.5e-06
0
9.6e-06
9.6e-06
2
9.7e-06
9.6e-06
9.8e-06
9.7e-06
9.8e-06
9.8e-06
1
9.9e-06
9.9e-06
2
1e-05
1e-05
1
1.01e-05
1.01e-05
1
1.02e-05
1.01e-05
1.03e-05
1.02e-05
1.03e-05
1.03e-05
1
1.04e-05
1.03e-05
1.05e-05
1.04e-05
1.05e-05
1.05e-05
1
1.06e-05
1.06e-05
0
1.07e-05
1.06e-05
1.07e-05
1.07e-05
0
1.08e-05
1.08e-05
1
1.09e-05
1.08e-05
1.09e-05
1.1e-05
1.1e-05
2
1.11e-05
1.11e-05
1
1.12e-05
1.12e-05
1
1.13e-05
1.13e-05
1
1.14e-05
1.14e-05
1
1.15e-05
1.15e-05
1
1.16e-05
1.15e-05
1.17e-05
1.16e-05
1.17e-05
1.18e-05
1.17e-05
1.18e-05
1.18e-05
0
1.19e-05
1.19e-05
1
1.2e-05
1.2e-05
1
1.21e-05
1.21e-05
1
1.22e-05
1.22e-05
1
1.23e-05
1.23e-05
0
1.24e-05
1.23e-05
1.25e-05
1.24e-05
1.25e-05
1.25e-05
0
1.26e-05
1.26e-05
1
1.27e-05
1.27e-05
1
1.28e-05
1.28e-05
1
1.29e-05
1.29e-05
0
1.3e-05
1.3e-05
1
1.31e-05
1.31e-05
1
1.32e-05
1.32e-05
1
1.33e-05
1.34e-05
1.33e-05
1.34e-05
1.35e-05
1.34e-05
1.35e-05
1.36e-05
1.36e-05
1
1.37e-05
1.37e-05
1
1.38e-05
1.38e-05
0
1.39e-05
1.39e-05
1
1.4e-05
1.4e-05
0
1.41e-05
1.41e-05
1
1.42e-05
1.42e-05
0
1.43e-05
1.43e-05
1
1.44e-05
1.44e-05
1
1.45e-05
1.46e-05
1.46e-05
2
1.47e-05
1.48e-05
1.47e-05
1.49e-05
1.48e-05
1.49e-05
1.5e-05
1.5e-05
1
1.51e-05
1.51e-05
1
1.52e-05
1.53e-05
1.53e-05
2
1.55e-05
1.54e-05
1.55e-05
1.55e-05
0
1.56e-05
1.56e-05
0
1.57e-05
1.57e-05
0
1.58e-05
1.58e-05
1
1.59e-05
1.59e-05
0
1.6e-05
1.6e-05
0
1.61e-05
1.61e-05
1
1.62e-05
1.63e-05
1.62e-05
1.64e-05
1.64e-05
2
1.65e-05
1.66e-05
1.66e-05
1
1.67e-05
1.68e-05
1.67e-05
1.69e-05
1.69e-05
2
1.71e-05
1.7e-05
1.71e-05
1.72e-05
1.72e-05
1
1.73e-05
1.74e-05
1.73e-05
1.75e-05
1.75e-05
1
1.76e-05
1.76e-05
0
1.77e-05
1.77e-05
0
1.78e-05
1.78e-05
0
1.79e-05
1.79e-05
0
1.8e-05
1.8e-05
1
1.81e-05
1.82e-05
1.82e-05
0
1.83e-05
1.83e-05
1
1.85e-05
1.84e-05
1.85e-05
1.86e-05
1.86e-05
0
1.87e-05
1.87e-05
1
1.88e-05
1.89e-05
1.89e-05
0
1.9e-05
1.9e-05
0
1.91e-05
1.91e-05
0
1.92e-05
1.92e-05
0
1.93e-05
1.93e-05
0
1.94e-05
1.94e-05
0
1.95e-05
1.95e-05
0
1.96e-05
1.96e-05
0
1.97e-05
1.98e-05
1.98e-05
1
1.99e-05
2e-05
2e-05
0
2.01e-05
2.01e-05
1
2.03e-05
2.02e-05
2.04e-05
2.04e-05
1
2.05e-05
2.06e-05
2.06e-05
1
2.08e-05
2.07e-05
2.09e-05
2.08e-05
2.1e-05
2.1e-05
1
2.11e-05
2.12e-05
2.12e-05
0
2.13e-05
2.13e-05
0
2.14e-05
2.15e-05
2.15e-05
1
2.16e-05
2.17e-05
2.17e-05
0
2.18e-05
2.19e-05
2.19e-05
1
2.21e-05
2.2e-05
2.22e-05
2.22e-05
1
2.23e-05
2.24e-05
2.25e-05
2.24e-05
2.26e-05
2.26e-05
0
2.27e-05
2.27e-05
0
2.28e-05
2.28e-05
0
2.29e-05
2.3e-05
2.3e-05
0
2.31e-05
2.32e-05
2.32e-05
0
2.33e-05
2.33e-05
0
2.34e-05
2.34e-05
0
2.36e-05
2.35e-05
2.37e-05
2.37e-05
1
2.39e-05
2.38e-05
2.4e-05
2.4e-05
0
2.41e-05
2.41e-05
0
2.42e-05
2.43e-05
2.43e-05
0
2.44e-05
2.45e-05
2.45e-05
0
2.46e-05
2.46e-05
0
2.47e-05
2.48e-05
2.48e-05
0
2.49e-05
2.5e-05
2.5e-05
0
2.51e-05
2.52e-05
2.52e-05
0
2.53e-05
2.54e-05
2.54e-05
0
2.55e-05
2.56e-05
2.56e-05
0
2.57e-05
2.57e-05
0
2.58e-05
2.59e-05
2.6e-05
2.6e-05
0
2.61e-05
2.62e-05
2.62e-05
0
2.63e-05
2.63e-05
0
2.65e-05
2.65e-05
1
2.67e-05
2.67e-05
1
2.69e-05
2.69e-05
0
2.7e-05
2.7e-05
0
2.71e-05
2.72e-05
2.73e-05
2.73e-05
0
2.74e-05
2.74e-05
0
2.76e-05
2.76e-05
0
2.77e-05
2.77e-05
0
2.78e-05
2.79e-05
2.8e-05
2.8e-05
0
2.81e-05
2.82e-05
2.82e-05
0
2.83e-05
2.84e-05
2.85e-05
2.85e-05
0
2.86e-05
2.87e-05
2.88e-05
2.88e-05
0
2.89e-05
2.9e-05
2.9e-05
0
2.92e-05
2.91e-05
2.93e-05
2.94e-05
2.94e-05
0
2.95e-05
2.95e-05
0
2.97e-05
2.97e-05
0
2.98e-05
2.99e-05
2.99e-05
0
3e-05
3.01e-05
3.02e-05
3.02e-05
0
3.04e-05
3.04e-05
1
3.06e-05
3.06e-05
0
3.07e-05
3.08e-05
3.09e-05
3.09e-05
0
3.1e-05
3.11e-05
3.12e-05
3.12e-05
0
3.14e-05
3.14e-05
0
3.15e-05
3.15e-05
0
3.17e-05
3.17e-05
0
3.18e-05
3.19e-05
3.2e-05
3.2e-05
0
3.21e-05
3.22e-05
3.23e-05
3.24e-05
3.24e-05
0
3.25e-05
3.27e-05
3.26e-05
3.28e-05
3.29e-05
3.29e-05
0
3.3e-05
3.31e-05
3.32e-05
3.33e-05
3.33e-05
0
3.34e-05
3.35e-05
3.36e-05
3.37e-05
3.38e-05
3.38e-05
0
3.4e-05
3.4e-05
0
3.41e-05
3.41e-05
0
3.43e-05
3.44e-05
3.44e-05
0
3.45e-05
3.46e-05
3.47e-05
3.48e-05
3.49e-05
3.49e-05
0
3.5e-05
3.52e-05
3.52e-05
0
3.53e-05
3.54e-05
3.54e-05
0
3.56e-05
3.56e-05
0
3.58e-05
3.58e-05
0
3.59e-05
3.6e-05
3.61e-05
3.61e-05
0
3.63e-05
3.64e-05
3.64e-05
0
3.65e-05
3.66e-05
3.67e-05
3.68e-05
3.69e-05
3.7e-05
3.71e-05
3.71e-05
0
3.73e-05
3.73e-05
0
3.75e-05
3.75e-05
0
3.76e-05
3.77e-05
3.78e-05
3.79e-05
3.8e-05
3.8e-05
0
3.82e-05
3.83e-05
3.83e-05
0
3.85e-05
3.85e-05
0
3.86e-05
3.88e-05
3.88e-05
0
3.89e-05
3.9e-05
3.91e-05
3.92e-05
3.93e-05
3.94e-05
3.95e-05
3.95e-05
0
3.97e-05
3.98e-05
3.98e-05
0
4e-05
4.01e-05
4.01e-05
0
4.03e-05
4.03e-05
0
4.05e-05
4.05e-05
0
4.06e-05
4.08e-05
4.08e-05
0
4.09e-05
4.11e-05
4.11e-05
0
4.12e-05
4.14e-05
4.14e-05
0
4.15e-05
4.16e-05
4.18e-05
4.18e-05
0
4.19e-05
4.2e-05
4.22e-05
4.22e-05
0
4.23e-05
4.24e-05
4.26e-05
4.26e-05
0
4.27e-05
4.29e-05
4.29e-05
0
4.31e-05
4.31e-05
0
4.32e-05
4.34e-05
4.34e-05
0
4.36e-05
4.36e-05
0
4.38e-05
4.39e-05
4.39e-05
0
4.41e-05
4.42e-05
4.43e-05
4.44e-05
4.45e-05
4.46e-05
4.47e-05
4.48e-05
4.49e-05
4.5e-05
4.51e-05
4.53e-05
4.53e-05
0
4.54e-05
4.56e-05
4.57e-05
4.57e-05
0
4.59e-05
4.6e-05
4.61e-05
4.62e-05
4.63e-05
4.64e-05
4.65e-05
4.67e-05
4.67e-05
0
4.69e-05
4.7e-05
4.7e-05
0
4.72e-05
4.73e-05
4.74e-05
4.75e-05
4.77e-05
4.77e-05
0
4.79e-05
4.79e-05
0
4.81e-05
4.82e-05
4.83e-05
4.84e-05
4.85e-05
4.87e-05
4.87e-05
0
4.89e-05
4.9e-05
4.91e-05
4.92e-05
4.93e-05
4.94e-05
4.96e-05
4.97e-05
4.97e-05
0
4.99e-05
5.01e-05
5.01e-05
0
5.02e-05
5.04e-05
5.05e-05
5.06e-05
5.07e-05
5.08e-05
5.1e-05
5.1e-05
0
5.12e-05
5.13e-05
5.14e-05
5.16e-05
5.16e-05
0
5.18e-05
5.19e-05
5.2e-05
5.21e-05
5.23e-05
5.24e-05
5.25e-05
5.26e-05
5.27e-05
5.29e-05
5.29e-05
0
5.31e-05
5.33e-05
5.33e-05
0
5.35e-05
5.36e-05
5.37e-05
5.38e-05
5.39e-05
5.41e-05
5.42e-05
5.44e-05
5.44e-05
0
5.46e-05
5.47e-05
5.48e-05
5.49e-05
5.51e-05
5.52e-05
5.53e-05
5.55e-05
5.56e-05
5.57e-05
5.58e-05
5.59e-05
5.61e-05
5.62e-05
5.64e-05
5.64e-05
0
5.66e-05
5.67e-05
5.69e-05
5.7e-05
5.71e-05
5.72e-05
5.74e-05
5.75e-05
5.76e-05
5.77e-05
5.79e-05
5.8e-05
5.82e-05
5.82e-05
0
5.84e-05
5.86e-05
5.87e-05
5.88e-05
5.89e-05
5.9e-05
5.92e-05
5.94e-05
5.94e-05
0
5.96e-05
5.98e-05
5.98e-05
0
6e-05
6.02e-05
6.02e-05
0
6.04e-05
6.06e-05
6.06e-05
0
6.08e-05
6.1e-05
6.11e-05
6.12e-05
6.13e-05
6.15e-05
6.16e-05
6.18e-05
6.19e-05
6.2e-05
6.22e-05
6.23e-05
6.25e-05
6.26e-05
6.27e-05
6.28e-05
6.31e-05
6.31e-05
0
6.33e-05
6.34e-05
6.36e-05
6.37e-05
6.38e-05
6.4e-05
6.41e-05
6.43e-05
6.44e-05
6.46e-05
6.47e-05
6.48e-05
6.5e-05
6.51e-05
6.53e-05
6.54e-05
6.56e-05
6.57e-05
6.58e-05
6.6e-05
6.61e-05
6.63e-05
6.64e-05
6.66e-05
6.67e-05
6.69e-05
6.7e-05
6.71e-05
6.73e-05
6.75e-05
6.76e-05
6.77e-05
6.79e-05
6.8e-05
6.82e-05
6.84e-05
6.85e-05
6.86e-05
6.88e-05
6.89e-05
6.91e-05
6.92e-05
6.94e-05
6.95e-05
6.97e-05
6.98e-05
7e-05
7.02e-05
7.03e-05
7.04e-05
7.06e-05
7.07e-05
7.09e-05
7.11e-05
7.12e-05
7.14e-05
7.15e-05
7.16e-05
7.19e-05
7.19e-05
0
7.22e-05
7.23e-05
7.24e-05
7.26e-05
7.28e-05
7.29e-05
7.3e-05
7.33e-05
7.34e-05
7.35e-05
7.37e-05
7.38e-05
7.41e-05
7.41e-05
0
7.44e-05
7.44e-05
0
7.47e-05
7.48e-05
7.5e-05
7.51e-05
7.53e-05
7.54e-05
7.56e-05
7.58e-05
7.59e-05
7.61e-05
7.63e-05
7.64e-05
7.66e-05
7.67e-05
7.69e-05
7.71e-05
7.72e-05
7.74e-05
7.76e-05
7.77e-05
7.79e-05
7.81e-05
7.82e-05
7.84e-05
7.85e-05
7.87e-05
7.89e-05
7.91e-05
7.92e-05
7.93e-05
7.96e-05
7.97e-05
7.99e-05
8.01e-05
8.02e-05
8.04e-05
8.05e-05
8.07e-05
8.09e-05
8.11e-05
8.12e-05
8.15e-05
8.15e-05
0
8.18e-05
8.19e-05
8.21e-05
8.22e-05
8.25e-05
8.26e-05
8.28e-05
8.29e-05
8.31e-05
8.33e-05
8.35e-05
8.37e-05
8.38e-05
8.4e-05
8.41e-05
8.44e-05
8.45e-05
8.47e-05
8.49e-05
8.5e-05
8.52e-05
8.54e-05
8.56e-05
8.57e-05
8.6e-05
8.61e-05
8.63e-05
8.64e-05
8.67e-05
8.68e-05
8.7e-05
8.72e-05
8.73e-05
8.76e-05
8.77e-05
8.79e-05
8.81e-05
8.82e-05
8.85e-05
8.86e-05
8.88e-05
8.9e-05
8.92e-05
8.93e-05
8.96e-05
8.97e-05
8.99e-05
9.01e-05
9.03e-05
9.04e-05
9.07e-05
9.08e-05
9.1e-05
9.12e-05
9.14e-05
9.16e-05
9.17e-05
9.2e-05
9.21e-05
9.23e-05
9.25e-05
9.27e-05
9.29e-05
9.31e-05
9.32e-05
9.35e-05
9.36e-05
9.38e-05
9.4e-05
9.43e-05
9.44e-05
9.45e-05
9.48e-05
9.5e-05
9.52e-05
9.53e-05
9.56e-05
9.57e-05
9.59e-05
9.62e-05
9.63e-05
9.65e-05
9.67e-05
9.69e-05
9.71e-05
9.73e-05
9.75e-05
9.77e-05
9.78e-05
9.81e-05
9.83e-05
9.84e-05
9.87e-05
9.89e-05
9.9e-05
9.93e-05
9.94e-05
9.97e-05
9.98e-05
0.0001001
0.0001002
0.0001005
0.0001006
0.0001009
0.000101
0.0001013
0.0001014
0.0001017
0.0001018
0.0001021
0.0001023
0.0001024
0.0001027
0.0001028
0.0001031
0.0001033
0.0001035
0.0001037
0.0001038
0.0001041
0.0001043
0.0001045
0.0001047
0.000105
0.0001051
0.0001053
0.0001055
0.0001058
0.0001059
0.0001062
0.0001063
0.0001066
0.0001068
0.000107
0.0001072
0.0001074
0.0001076
0.0001079
0.000108
0.0001082
0.0001085
0.0001087
0.0001089
0.0001091
0.0001093
0.0001095
0.0001097
0.00011
0.0001101
0.0001104
0.0001106
0.0001108
0.000111
0.0001113
0.0001114
0.0001117
0.0001119
0.0001121
0.0001123
0.0001125
0.0001128
0.0001129
0.0001132
0.0001134
0.0001136
0.0001139
0.000114
0.0001143
0.0001145
0.0001147
0.000115
0.0001151
0.0001154
0.0001156
0.0001158
0.0001161
0.0001162
0.0001165
0.0001167
0.000117
0.0001171
0.0001174
0.0001176
0.0001178
0.0001181
0.0001183
0.0001185
0.0001187
0.000119
0.0001191
0.0001194
0.0001197
0.0001198
0.0001201
0.0001203
0.0001206
0.0001208
0.000121
0.0001212
0.0001214
0.0001217
0.0001219
0.0001222
0.0001224
0.0001226
0.0001228
0.0001231
0.0001233
0.0001235
0.0001238
0.000124
0.0001242
0.0001245
0.0001247
0.0001249
0.0001252
0.0001254
0.0001256
0.0001259
0.0001261
0.0001263
0.0001266
0.0001268
0.000127
0.0001273
0.0001275
0.0001278
0.000128
0.0001282
0.0001285
0.0001287
0.000129
0.0001291
0.0001295
0.0001296
0.00013
0.0001301
0.0001304
0.0001306
0.0001309
0.0001311
0.0001314
0.0001316
0.0001318
0.0001321
0.0001323
0.0001326
0.0001328
0.0001331
0.0001333
0.0001335
0.0001338
0.0001341
0.0001342
0.0001346
0.0001347
0.0001351
0.0001352
0.0001356
0.0001357
0.000136
0.0001363
0.0001365
0.0001368
0.000137
0.0001372
0.0001376
0.0001377
0.000138
0.0001383
0.0001385
0.0001388
0.000139
0.0001392
0.0001395
0.0001398
0.00014
0.0001403
0.0001406
0.0001407
0.0001411
0.0001413
0.0001415
0.0001418
0.0001421
0.0001423
0.0001426
0.0001428
0.0001431
0.0001433
0.0001436
0.0001439
0.0001441
0.0001443
0.0001447
0.0001449
0.0001451
0.0001454
0.0001457
0.0001459
0.0001462
0.0001464
0.0001468
0.0001469
0.0001473
0.0001474
0.0001478
0.000148
0.0001483
0.0001486
0.0001488
0.000149
0.0001494
0.0001496
0.0001498
0.0001502
0.0001504
0.0001506
0.0001509
0.0001512
0.0001515
0.0001517
0.000152
0.0001523
0.0001525
0.0001528
0.0001531
0.0001533
0.0001536
0.0001539
0.0001541
0.0001544
0.0001547
0.000155
0.0001552
0.0001555
0.0001558
0.000156
0.0001563
0.0001566
0.0001569
0.0001571
0.0001574
0.0001577
0.0001579
0.0001583
0.0001585
0.0001587
0.0001591
0.0001593
0.0001596
0.0001599
0.0001602
0.0001604
0.0001607
0.000161
0.0001613
0.0001615
0.0001618
0.0001621
0.0001624
0.0001627
0.0001629
0.0001632
0.0001635
0.0001638
0.0001641
0.0001643
0.0001646
0.0001649
0.0001652
0.0001655
0.0001657
0.0001661
0.0001663
0.0001666
0.0001669
0.0001671
0.0001675
0.0001677
0.0001681
0.0001683
0.0001686
0.0001688
0.0001692
0.0001695
0.0001697
0.00017
0.0001703
0.0001707
0.0001708
0.0001712
0.0001715
0.0001718
0.000172
0.0001723
0.0001727
0.0001729
0.0001732
0.0001735
0.0001738
0.0001741
0.0001744
0.0001746
0.000175
0.0001752
0.0001756
0.0001758
0.0001762
0.0001764
0.0001767
0.000177
0.0001773
0.0001776
0.0001779
0.0001782
0.0001785
0.0001788
0.0001791
0.0001794
0.0001797
0.0001799
0.0001803
0.0001806
0.0001809
0.0001811
0.0001815
0.0001818
0.0001821
0.0001823
0.0001827
0.000183
0.0001832
0.0001836
0.0001839
0.0001842
0.0001844
0.0001848
0.0001851
0.0001854
0.0001857
0.000186
0.0001863
0.0001866
0.0001869
0.0001872
0.0001875
0.0001878
0.0001882
0.0001884
0.0001888
0.000189
0.0001894
0.0001896
0.00019
0.0001903
0.0001905
0.0001909
0.0001912
0.0001915
0.0001919
0.0001921
0.0001924
0.0001928
0.000193
0.0001934
0.0001937
0.000194
0.0001943
0.0001946
0.0001949
0.0001953
0.0001955
0.0001959
0.0001962
0.0001965
0.0001968
0.0001971
0.0001974
0.0001978
0.0001981
0.0001983
0.0001987
0.0001991
0.0001993
0.0001996
0.0002
0.0002003
0.0002006
0.0002009
0.0002012
0.0002016
0.0002018
0.0002022
0.0002025
0.0002029
0.0002031
0.0002035
0.0002038
0.0002041
0.0002044
0.0002048
0.000205
0.0002054
0.0002057
0.0002061
0.0002063
0.0002067
0.000207
0.0002073
0.0002077
0.000208
0.0002083
0.0002086
0.0002089
0.0002093
0.0002096
0.0002099
0.0002103
0.0002106
0.0002109
0.0002112
0.0002116
0.0002119
0.0002122
0.0002125
0.0002129
0.0002132
0.0002135
0.0002138
0.0002142
0.0002145
0.0002149
0.0002152
0.0002155
0.0002158
0.0002162
0.0002165
0.0002168
0.0002171
0.0002175
0.0002179
0.0002181
0.0002185
0.0002188
0.0002192
0.0002195
0.0002198
0.0002201
0.0002205
0.0002209
0.0002211
0.0002215
0.0002218
0.0002222
0.0002225
0.0002228
0.0002232
0.0002235
0.0002239
0.0002242
0.0002245
0.0002249
0.0002252
0.0002255
0.0002259
0.0002262
0.0002265
0.0002269
0.0002273
0.0002275
0.0002279
0.0002283
0.0002286
0.0002289
0.0002293
0.0002296
0.00023
0.0002303
0.0002306
0.000231
0.0002313
0.0002317
0.000232
0.0002324
0.0002327
0.000233
0.0002334
0.0002338
0.0002341
0.0002344
0.0002347
0.0002352
0.0002354
0.0002358
0.0002362
0.0002365
0.0002368
0.0002372
0.0002376
0.0002379
0.0002382
0.0002386
0.0002389
0.0002393
0.0002396
0.00024
0.0002403
0.0002407
0.0002411
0.0002413
0.0002418
0.000242
0.0002425
0.0002428
0.0002431
0.0002435
0.0002438
0.0002442
0.0002445
0.0002449
0.0002453
0.0002456
0.0002459
0.0002463
0.0002467
0.000247
0.0002474
0.0002477
0.000248
0.0002485
0.0002488
0.0002491
0.0002495
0.0002498
0.0002503
0.0002505
0.0002509
0.0002513
0.0002516
0.000252
0.0002524
0.0002527
0.000253
0.0002535
0.0002537
0.0002542
0.0002545
0.0002548
0.0002552
0.0002556
0.0002559
0.0002563
0.0002567
0.000257
0.0002574
0.0002577
0.0002581
0.0002585
0.0002588
0.0002592
0.0002595
0.0002599
0.0002603
0.0002606
0.000261
0.0002613
0.0002617
0.0002621
0.0002625
0.0002628
0.0002631
0.0002636
0.0002639
0.0002642
0.0002647
0.000265
0.0002653
0.0002657
0.0002661
0.0002665
0.0002668
0.0002672
0.0002675
0.000268
0.0002682
0.0002687
0.000269
0.0002694
0.0002698
0.0002701
0.0002705
0.0002708
0.0002713
0.0002716
0.0002719
0.0002724
0.0002727
0.000273
0.0002735
0.0002738
0.0002742
0.0002745
0.0002749
0.0002753
0.0002757
0.000276
0.0002764
0.0002768
0.0002772
0.0002775
0.0002779
0.0002783
0.0002786
0.000279
0.0002794
0.0002797
0.0002802
0.0002805
0.0002808
0.0002813
0.0002816
0.000282
0.0002824
0.0002827
0.0002831
0.0002835
0.0002839
0.0002843
0.0002846
0.000285
0.0002853
0.0002858
0.0002861
0.0002865
0.0002869
0.0002872
0.0002876
0.0002881
0.0002883
0.0002888
0.0002891
0.0002895
0.0002899
0.0002903
0.0002906
0.0002911
0.0002914
0.0002917
0.0002922
0.0002925
0.0002929
0.0002933
0.0002937
0.0002941
0.0002944
0.0002948
0.0002952
0.0002956
0.0002959
0.0002964
0.0002967
0.0002971
0.0002974
0.0002979
0.0002982
0.0002987
0.000299
0.0002993
0.0002998
0.0003001
0.0003006
0.0003009
0.0003013
0.0003016
0.0003021
0.0003024
0.0003028
0.0003033
0.0003035
0.000304
0.0003044
0.0003047
0.0003051
0.0003055
0.0003059
0.0003063
0.0003066
0.0003071
0.0003074
0.0003078
0.0003082
0.0003086
0.0003089
0.0003094
0.0003097
0.0003101
0.0003106
0.0003108
0.0003113
0.0003117
0.000312
0.0003125
0.0003128
0.0003132
0.0003136
0.000314
0.0003143
0.0003148
0.0003151
0.0003155
0.000316
0.0003163
0.0003166
0.0003171
0.0003175
0.0003178
0.0003183
0.0003186
0.000319
0.0003194
0.0003198
0.0003202
0.0003206
0.0003209
0.0003214
0.0003217
0.0003221
0.0003225
0.0003229
0.0003233
0.0003237
0.0003241
0.0003244
0.0003249
0.0003252
0.0003256
0.000326
0.0003265
0.0003267
0.0003272
0.0003276
0.000328
0.0003283
0.0003288
0.0003291
0.0003295
0.00033
0.0003303
0.0003307
0.0003311
0.0003315
0.0003318
0.0003323
0.0003326
0.0003331
0.0003334
0.0003339
0.0003342
0.0003346
0.000335
0.0003354
0.0003358
0.0003362
0.0003365
0.000337
0.0003374
0.0003377
0.0003382
0.0003385
0.0003389
0.0003393
0.0003397
0.0003401
0.0003405
0.0003409
0.0003413
0.0003417
0.000342
0.0003425
0.0003429
0.0003432
0.0003436
0.0003441
0.0003444
0.0003448
0.0003452
0.0003456
0.000346
0.0003464
0.0003468
0.0003472
0.0003476
0.0003479
0.0003484
0.0003487
0.0003492
0.0003495
0.0003499
0.0003504
0.0003507
0.0003511
0.0003515
0.0003519
0.0003523
0.0003527
0.0003531
0.0003535
0.0003538
0.0003543
0.0003547
0.000355
0.0003555
0.0003558
0.0003562
0.0003567
0.000357
0.0003574
0.0003578
0.0003582
0.0003586
0.000359
0.0003594
0.0003598
0.0003602
0.0003605
0.000361
0.0003614
0.0003617
0.0003622
0.0003625
0.000363
0.0003633
0.0003637
0.0003641
0.0003646
0.0003649
0.0003653
0.0003657
0.0003661
0.0003664
0.0003669
0.0003673
0.0003677
0.000368
0.0003685
0.0003688
0.0003693
0.0003696
0.0003701
0.0003704
0.0003708
0.0003712
0.0003716
0.000372
0.0003724
0.0003728
0.0003732
0.0003736
0.000374
0.0003744
0.0003747
0.0003752
0.0003755
0.000376
0.0003763
0.0003767
0.0003772
0.0003775
0.0003779
0.0003783
0.0003787
0.0003791
0.0003795
0.0003799
0.0003802
0.0003807
0.0003811
0.0003814
0.0003819
0.0003822
0.0003826
0.000383
0.0003835
0.0003838
0.0003842
0.0003846
0.000385
0.0003853
0.0003858
0.0003862
0.0003865
0.000387
0.0003873
0.0003878
0.0003881
0.0003885
0.0003889
0.0003893
0.0003897
0.0003901
0.0003905
0.0003909
0.0003912
0.0003917
0.000392
0.0003925
0.0003928
0.0003932
0.0003936
0.000394
0.0003944
0.0003948
0.0003952
0.0003956
0.0003959
0.0003964
0.0003967
0.0003971
0.0003976
0.0003979
0.0003983
0.0003986
0.0003991
0.0003995
0.0003998
0.0004003
0.0004006
0.000401
0.0004015
0.0004018
0.0004022
0.0004025
0.000403
0.0004034
0.0004037
0.0004041
0.0004046
0.0004049
0.0004053
0.0004057
0.000406
0.0004065
0.0004069
0.0004072
0.0004076
0.000408
0.0004084
0.0004088
0.0004092
0.0004095
0.00041
0.0004103
0.0004107
0.0004112
0.0004114
0.0004119
0.0004123
0.0004126
0.0004131
0.0004134
0.0004138
0.0004142
0.0004145
0.000415
0.0004153
0.0004158
0.0004161
0.0004165
0.0004169
0.0004172
0.0004177
0.000418
0.0004184
0.0004188
0.0004192
0.0004195
0.00042
0.0004203
0.0004207
0.0004211
0.0004215
0.0004218
0.0004223
0.0004226
0.000423
0.0004234
0.0004237
0.0004242
0.0004245
0.0004249
0.0004253
0.0004256
0.0004261
0.0004264
0.0004268
0.0004272
0.0004275
0.000428
0.0004283
0.0004287
0.000429
0.0004295
0.0004298
0.0004302
0.0004306
0.000431
0.0004313
0.0004317
0.0004321
0.0004325
0.0004328
0.0004332
0.0004336
0.000434
0.0004343
0.0004347
0.0004351
0.0004355
0.0004358
0.0004363
0.0004366
0.0004369
0.0004374
0.0004377
0.000438
0.0004385
0.0004388
0.0004392
0.0004396
0.00044
0.0004403
0.0004407
0.000441
0.0004415
0.0004418
0.0004421
0.0004426
0.0004429
0.0004433
0.0004436
0.000444
0.0004444
0.0004448
0.0004451
0.0004455
0.0004459
0.0004462
0.0004466
0.000447
0.0004473
0.0004477
0.000448
0.0004485
0.0004488
0.0004491
0.0004496
0.0004499
0.0004502
0.0004506
0.000451
0.0004514
0.0004517
0.0004521
0.0004524
0.0004528
0.0004532
0.0004535
0.0004539
0.0004542
0.0004546
0.000455
0.0004553
0.0004557
0.0004561
0.0004564
0.0004568
0.0004571
0.0004575
0.0004578
0.0004582
0.0004586
0.0004589
0.0004593
0.0004597
0.00046
0.0004603
0.0004607
0.0004611
0.0004614
0.0004618
0.0004621
0.0004625
0.0004628
0.0004632
0.0004636
0.0004639
0.0004642
0.0004646
0.000465
0.0004653
0.0004656
0.000466
0.0004664
0.0004667
0.0004671
0.0004674
0.0004678
0.0004681
0.0004684
0.0004688
0.0004692
0.0004695
0.0004699
0.0004702
0.0004705
0.0004709
0.0004712
0.0004716
0.000472
0.0004722
0.0004727
0.0004729
0.0004733
0.0004737
0.000474
0.0004743
0.0004747
0.000475
0.0004754
0.0004757
0.000476
0.0004764
0.0004768
0.000477
0.0004774
0.0004778
0.0004781
0.0004784
0.0004788
0.0004791
0.0004794
0.0004798
0.0004801
0.0004804
0.0004808
0.0004811
0.0004815
0.0004818
0.0004821
0.0004824
0.0004828
0.0004831
0.0004835
0.0004838
0.0004841
0.0004844
0.0004848
0.0004851
0.0004855
0.0004857
0.0004861
0.0004864
0.0004868
0.0004871
0.0004874
0.0004877
0.0004881
0.0004884
0.0004887
0.000489
0.0004894
0.0004897
0.00049
0.0004903
0.0004907
0.000491
0.0004913
0.0004916
0.0004919
0.0004923
0.0004926
0.0004929
0.0004932
0.0004936
0.0004938
0.0004942
0.0004945
0.0004948
0.0004952
0.0004954
0.0004958
0.0004961
0.0004964
0.0004967
0.000497
0.0004973
0.0004977
0.000498
0.0004982
0.0004986
0.0004989
0.0004992
0.0004996
0.0004998
0.0005001
0.0005005
0.0005007
0.0005011
0.0005014
0.0005017
0.0005019
0.0005023
0.0005026
0.0005029
0.0005032
0.0005036
0.0005038
0.0005041
0.0005044
0.0005047
0.000505
0.0005054
0.0005056
0.0005059
0.0005062
0.0005066
0.0005068
0.0005071
0.0005074
0.0005077
0.000508
0.0005083
0.0005086
0.0005089
0.0005092
0.0005095
0.0005098
0.00051
0.0005104
0.0005107
0.0005109
0.0005112
0.0005116
0.0005118
0.0005121
0.0005124
0.0005126
0.000513
0.0005132
0.0005136
0.0005138
0.0005141
0.0005144
0.0005147
0.0005149
0.0005153
0.0005155
0.0005158
0.0005161
0.0005164
0.0005166
0.0005169
0.0005172
0.0005175
0.0005178
0.000518
0.0005183
0.0005186
0.0005189
0.0005191
0.0005195
0.0005197
0.0005199
